Tempo(s)	Deformacao(mm)	Forca(N)
0.016667 	0.00000 	-0.0032388 
0.066667 	0.00075660 	-0.0032388 
0.10000 	0.0020806 	-0.0032388 
0.11667 	0.0032155 	-0.0032388 
0.13333 	0.0043504 	-0.0016194 
0.15000 	0.0056745 	0.00000 
0.16667 	0.0071877 	0.0016178 
0.18333 	0.0087009 	0.0016178 
0.20000 	0.010781 	0.0032355 
0.21667 	0.012862 	0.0048533 
0.23333 	0.014564 	0.0064711 
0.25000 	0.016267 	0.0064711 
0.26667 	0.017969 	0.0080889 
0.28333 	0.019482 	0.0080889 
0.30000 	0.020996 	0.0064711 
0.31667 	0.022698 	0.0080889 
0.33333 	0.024211 	0.0097066 
0.35000 	0.025913 	0.0097066 
0.36667 	0.027616 	0.0097066 
0.38333 	0.029318 	0.0097066 
0.40000 	0.031020 	0.011324 
0.41667 	0.032723 	0.011324 
0.43333 	0.034425 	0.011324 
0.45000 	0.035938 	0.011324 
0.46667 	0.037641 	0.011324 
0.48333 	0.039154 	0.012942 
0.50000 	0.040856 	0.012942 
0.51667 	0.042559 	0.012942 
0.53333 	0.044261 	0.012942 
0.55000 	0.045963 	0.012942 
0.56667 	0.047666 	0.012942 
0.58333 	0.049368 	0.012942 
0.60000 	0.051070 	0.012942 
0.61667 	0.052583 	0.011324 
0.63333 	0.054286 	0.011324 
0.65000 	0.055988 	0.012942 
0.66667 	0.057501 	0.012942 
0.68333 	0.059204 	0.011324 
0.70000 	0.060906 	0.011324 
0.71667 	0.062608 	0.011324 
0.73333 	0.064500 	0.011324 
0.75000 	0.066202 	0.011324 
0.76667 	0.067715 	0.011324 
0.78333 	0.069418 	0.0097066 
0.80000 	0.070931 	0.0097066 
0.81667 	0.072633 	0.0097066 
0.83333 	0.074146 	0.0064711 
0.85000 	0.075849 	0.0032355 
0.86667 	0.077551 	0.0032355 
0.88333 	0.079253 	0.0032355 
0.90000 	0.080956 	0.0032355 
0.91667 	0.082658 	0.0016178 
0.93333 	0.084171 	0.0032355 
0.95000 	0.085685 	0.0048533 
0.96667 	0.087387 	0.0064711 
0.98333 	0.088900 	0.0064711 
1.0000 	0.090602 	0.0064711 
1.0167 	0.092305 	0.0064711 
1.0333 	0.094007 	0.0064711 
1.0500 	0.095709 	0.0064711 
1.0667 	0.097412 	0.0064711 
1.0833 	0.099114 	0.0048533 
1.1000 	0.10063 	0.0064711 
1.1167 	0.10233 	0.0064711 
1.1333 	0.10384 	0.0048533 
1.1500 	0.10555 	0.0048533 
1.1667 	0.10725 	0.0064711 
1.1833 	0.10895 	0.0064711 
1.2000 	0.11065 	0.0064711 
1.2167 	0.11235 	0.0064711 
1.2333 	0.11406 	0.0080889 
1.2500 	0.11576 	0.0064711 
1.2667 	0.11727 	0.0080889 
1.2833 	0.11897 	0.0080889 
1.3000 	0.12049 	0.0064711 
1.3167 	0.12219 	0.0064711 
1.3333 	0.12389 	0.0064711 
1.3500 	0.12559 	0.0064711 
1.3667 	0.12730 	0.0080889 
1.3833 	0.12900 	0.0080889 
1.4000 	0.13070 	0.0080889 
1.4167 	0.13240 	0.0097066 
1.4333 	0.13392 	0.0080889 
1.4500 	0.13562 	0.0080889 
1.4667 	0.13732 	0.0097066 
1.4833 	0.13902 	0.0097066 
1.5000 	0.14073 	0.0097066 
1.5167 	0.14243 	0.011324 
1.5333 	0.14413 	0.012942 
1.5500 	0.14583 	0.011324 
1.5667 	0.14754 	0.012942 
1.5833 	0.14905 	0.014560 
1.6000 	0.15075 	0.014560 
1.6167 	0.15226 	0.016178 
1.6333 	0.15416 	0.016178 
1.6500 	0.15586 	0.017796 
1.6667 	0.15756 	0.019413 
1.6833 	0.15926 	0.021031 
1.7000 	0.16097 	0.021031 
1.7167 	0.16267 	0.022649 
1.7333 	0.16418 	0.024267 
1.7500 	0.16588 	0.025884 
1.7667 	0.16740 	0.025884 
1.7833 	0.16910 	0.027502 
1.8000 	0.17080 	0.029120 
1.8167 	0.17250 	0.030738 
1.8333 	0.17402 	0.030738 
1.8500 	0.17572 	0.032355 
1.8667 	0.17742 	0.033973 
1.8833 	0.17893 	0.035591 
1.9000 	0.18064 	0.035591 
1.9167 	0.18215 	0.037209 
1.9333 	0.18385 	0.037209 
1.9500 	0.18537 	0.040444 
1.9667 	0.18707 	0.042062 
1.9833 	0.18896 	0.042062 
2.0000 	0.19066 	0.043680 
2.0167 	0.19236 	0.045298 
2.0333 	0.19388 	0.046915 
2.0500 	0.19558 	0.046915 
2.0667 	0.19709 	0.048533 
2.0833 	0.19880 	0.048533 
2.1000 	0.20050 	0.050151 
2.1167 	0.20220 	0.051769 
2.1333 	0.20390 	0.053387 
2.1500 	0.20579 	0.053387 
2.1667 	0.20750 	0.055004 
2.1833 	0.20920 	0.056622 
2.2000 	0.21090 	0.056622 
2.2167 	0.21241 	0.058240 
2.2333 	0.21412 	0.058240 
2.2500 	0.21582 	0.059858 
2.2667 	0.21752 	0.061475 
2.2833 	0.21922 	0.063093 
2.3000 	0.22093 	0.063093 
2.3167 	0.22263 	0.064711 
2.3333 	0.22433 	0.066329 
2.3667 	0.22755 	0.066329 
2.4000 	0.23076 	0.069564 
2.4167 	0.23246 	0.071182 
2.4333 	0.23417 	0.072800 
2.4500 	0.23587 	0.072800 
2.4667 	0.23757 	0.074418 
2.4833 	0.23927 	0.072800 
2.5167 	0.24249 	0.076035 
2.5500 	0.24570 	0.079271 
2.5833 	0.24911 	0.080889 
2.6167 	0.25251 	0.080889 
2.6500 	0.25592 	0.084124 
2.6833 	0.25913 	0.085742 
2.7167 	0.26235 	0.087360 
2.7500 	0.26575 	0.088978 
2.7833 	0.26916 	0.090595 
2.8167 	0.27237 	0.092213 
2.8500 	0.27559 	0.092213 
2.8833 	0.27899 	0.095449 
2.9167 	0.28240 	0.097066 
2.9500 	0.28580 	0.098684 
2.9833 	0.28902 	0.10030 
3.0167 	0.29224 	0.10030 
3.0500 	0.29564 	0.10354 
3.0833 	0.29904 	0.10354 
3.1167 	0.30245 	0.10516 
3.1500 	0.30585 	0.10677 
3.1833 	0.30907 	0.10839 
3.2167 	0.31247 	0.10839 
3.2500 	0.31588 	0.11001 
3.2833 	0.31909 	0.11324 
3.3167 	0.32231 	0.11324 
3.3500 	0.32553 	0.11324 
3.3833 	0.32893 	0.11648 
3.4167 	0.33252 	0.11648 
3.4500 	0.33574 	0.11810 
3.4833 	0.33896 	0.11972 
3.5167 	0.34236 	0.11972 
3.5500 	0.34576 	0.12133 
3.5833 	0.34917 	0.12295 
3.6167 	0.35257 	0.12457 
3.6500 	0.35579 	0.12619 
3.6833 	0.35900 	0.12619 
3.7167 	0.36241 	0.12780 
3.7500 	0.36581 	0.12942 
3.7833 	0.36903 	0.13104 
3.8167 	0.37225 	0.13104 
3.8500 	0.37565 	0.13266 
3.8833 	0.37905 	0.13428 
3.9167 	0.38246 	0.13428 
3.9500 	0.38567 	0.13589 
3.9833 	0.38889 	0.13751 
4.0167 	0.39230 	0.13913 
4.0500 	0.39570 	0.13913 
4.0833 	0.39892 	0.14075 
4.1167 	0.40232 	0.14236 
4.1500 	0.40554 	0.14236 
4.1833 	0.40913 	0.14398 
4.2167 	0.41234 	0.14398 
4.2500 	0.41575 	0.14398 
4.2833 	0.41897 	0.14722 
4.3167 	0.42237 	0.14722 
4.3500 	0.42577 	0.14884 
4.3833 	0.42918 	0.15045 
4.4167 	0.43239 	0.15045 
4.4500 	0.43561 	0.15207 
4.4833 	0.43901 	0.15369 
4.5167 	0.44242 	0.15369 
4.5500 	0.44582 	0.15531 
4.6000 	0.45074 	0.15692 
4.6333 	0.45415 	0.15854 
4.6667 	0.45755 	0.16016 
4.7167 	0.46247 	0.16016 
4.7667 	0.46720 	0.16178 
4.8167 	0.47231 	0.16501 
4.8667 	0.47741 	0.16663 
4.9167 	0.48233 	0.16825 
4.9667 	0.48744 	0.16987 
5.0167 	0.49254 	0.17310 
5.0667 	0.49746 	0.17310 
5.1167 	0.50238 	0.17472 
5.1667 	0.50749 	0.17634 
5.2167 	0.51222 	0.17634 
5.2667 	0.51713 	0.17957 
5.3167 	0.52243 	0.18119 
5.3667 	0.52735 	0.18281 
5.4167 	0.53245 	0.18443 
5.4667 	0.53756 	0.18766 
5.5167 	0.54267 	0.18766 
5.5667 	0.54740 	0.18928 
5.6167 	0.55250 	0.19090 
5.6667 	0.55742 	0.19252 
5.7167 	0.56215 	0.19413 
5.7667 	0.56726 	0.19413 
5.8167 	0.57218 	0.19575 
5.8667 	0.57709 	0.19737 
5.9167 	0.58239 	0.19899 
5.9667 	0.58750 	0.20060 
6.0167 	0.59241 	0.20222 
6.0667 	0.59733 	0.20384 
6.1167 	0.60244 	0.20546 
6.1667 	0.60717 	0.20546 
6.2167 	0.61228 	0.20707 
6.2667 	0.61738 	0.20869 
6.3167 	0.62230 	0.21031 
6.3667 	0.62722 	0.21193 
6.4167 	0.63251 	0.21355 
6.4667 	0.63743 	0.21516 
6.5167 	0.64235 	0.21516 
6.5667 	0.64746 	0.21840 
6.6167 	0.65237 	0.21840 
6.6667 	0.65729 	0.21840 
6.7167 	0.66240 	0.22163 
6.7667 	0.66751 	0.22325 
6.8333 	0.67413 	0.22487 
6.8833 	0.67923 	0.22487 
6.9500 	0.68585 	0.22649 
7.0167 	0.69247 	0.22811 
7.0833 	0.69909 	0.22811 
7.1500 	0.70553 	0.23134 
7.2167 	0.71215 	0.23296 
7.2833 	0.71877 	0.23458 
7.3500 	0.72558 	0.23619 
7.4167 	0.73238 	0.23619 
7.4833 	0.73901 	0.23781 
7.5500 	0.74581 	0.24105 
7.6167 	0.75225 	0.24105 
7.6833 	0.75905 	0.24267 
7.7500 	0.76568 	0.24428 
7.8167 	0.77248 	0.24590 
7.8833 	0.77910 	0.24752 
7.9500 	0.78572 	0.24752 
8.0167 	0.79235 	0.24752 
8.0833 	0.79897 	0.24914 
8.1500 	0.80577 	0.25075 
8.2167 	0.81221 	0.25075 
8.2833 	0.81902 	0.25237 
8.3500 	0.82564 	0.25561 
8.4167 	0.83226 	0.25561 
8.4833 	0.83907 	0.25561 
8.5500 	0.84569 	0.25884 
8.6167 	0.85249 	0.25723 
8.6667 	0.85741 	0.23296 
8.6833 	0.85911 	0.071182 
