Tempo(s)	Deformacao(mm)	Forca(N)
0.016667 	0.00000 	0.00000 
0.10000 	0.0018915 	-0.0016194 
0.11667 	0.0035938 	0.00000 
0.13333 	0.0052962 	0.00000 
0.15000 	0.0068094 	-0.0016194 
0.16667 	0.0077551 	-0.0016194 
0.18333 	0.0090792 	-0.0016194 
0.20000 	0.010403 	0.00000 
0.21667 	0.011916 	0.00000 
0.23333 	0.013430 	0.00000 
0.25000 	0.015132 	-0.0016194 
0.26667 	0.016834 	0.00000 
0.28333 	0.018537 	0.00000 
0.30000 	0.020239 	0.00000 
0.31667 	0.021941 	0.00000 
0.33333 	0.023833 	0.00000 
0.35000 	0.025724 	0.00000 
0.36667 	0.027616 	0.0016178 
0.38333 	0.029318 	0.00000 
0.40000 	0.031020 	0.00000 
0.41667 	0.032912 	0.0016178 
0.43333 	0.034614 	0.0016178 
0.45000 	0.036317 	0.00000 
0.46667 	0.037830 	0.00000 
0.48333 	0.039532 	0.00000 
0.50000 	0.041045 	0.00000 
0.51667 	0.042559 	0.0016178 
0.53333 	0.044261 	0.0016178 
0.55000 	0.045963 	0.0016178 
0.56667 	0.047666 	0.0016178 
0.58333 	0.049368 	0.0016178 
0.60000 	0.051259 	0.0032355 
0.61667 	0.052773 	0.0032355 
0.63333 	0.054475 	0.0032355 
0.65000 	0.055988 	0.0032355 
0.66667 	0.057690 	0.0032355 
0.68333 	0.059204 	0.0032355 
0.70000 	0.060906 	0.0032355 
0.71667 	0.062608 	0.0048533 
0.73333 	0.064500 	0.0064711 
0.75000 	0.066202 	0.0048533 
0.76667 	0.067904 	0.0064711 
0.78333 	0.069607 	0.0064711 
0.80000 	0.071120 	0.0064711 
0.81667 	0.072822 	0.0080889 
0.83333 	0.074336 	0.0080889 
0.85000 	0.076038 	0.0080889 
0.86667 	0.077740 	0.0097066 
0.88333 	0.079443 	0.0097066 
0.90000 	0.081145 	0.011324 
0.91667 	0.082847 	0.011324 
0.93333 	0.084550 	0.011324 
0.95000 	0.086063 	0.012942 
0.96667 	0.087576 	0.012942 
0.98333 	0.089278 	0.014560 
1.0000 	0.090792 	0.016178 
1.0167 	0.092494 	0.016178 
1.0333 	0.094196 	0.016178 
1.0500 	0.095899 	0.017796 
1.0667 	0.097790 	0.017796 
1.0833 	0.099492 	0.019413 
1.1000 	0.10101 	0.019413 
1.1167 	0.10271 	0.021031 
1.1333 	0.10422 	0.022649 
1.1500 	0.10592 	0.022649 
1.1667 	0.10763 	0.022649 
1.1833 	0.10933 	0.024267 
1.2000 	0.11103 	0.025884 
1.2167 	0.11292 	0.027502 
1.2333 	0.11462 	0.027502 
1.2500 	0.11614 	0.029120 
1.2667 	0.11784 	0.030738 
1.2833 	0.11935 	0.032355 
1.3000 	0.12106 	0.032355 
1.3167 	0.12276 	0.032355 
1.3333 	0.12427 	0.035591 
1.3500 	0.12597 	0.035591 
1.3667 	0.12768 	0.035591 
1.3833 	0.12938 	0.037209 
1.4000 	0.13108 	0.038827 
1.4167 	0.13278 	0.038827 
1.4333 	0.13430 	0.040444 
1.4500 	0.13581 	0.042062 
1.4667 	0.13751 	0.042062 
1.4833 	0.13921 	0.043680 
1.5000 	0.14092 	0.043680 
1.5167 	0.14262 	0.045298 
1.5333 	0.14432 	0.046915 
1.5500 	0.14602 	0.046915 
1.5667 	0.14773 	0.048533 
1.5833 	0.14924 	0.050151 
1.6000 	0.15094 	0.050151 
1.6167 	0.15245 	0.051769 
1.6333 	0.15416 	0.053387 
1.6500 	0.15586 	0.053387 
1.6667 	0.15756 	0.055004 
1.6833 	0.15945 	0.055004 
1.7000 	0.16115 	0.056622 
1.7167 	0.16286 	0.058240 
1.7333 	0.16456 	0.058240 
1.7500 	0.16607 	0.059858 
1.7667 	0.16778 	0.061475 
1.7833 	0.16929 	0.061475 
1.8000 	0.17099 	0.063093 
1.8167 	0.17269 	0.064711 
1.8333 	0.17440 	0.064711 
1.8500 	0.17610 	0.066329 
1.8667 	0.17780 	0.066329 
1.8833 	0.17931 	0.067946 
1.9000 	0.18102 	0.069564 
1.9167 	0.18253 	0.069564 
1.9333 	0.18404 	0.071182 
1.9500 	0.18574 	0.071182 
1.9667 	0.18745 	0.071182 
1.9833 	0.18934 	0.072800 
2.0000 	0.19104 	0.074418 
2.0167 	0.19274 	0.074418 
2.0333 	0.19445 	0.076035 
2.0500 	0.19615 	0.077653 
2.0667 	0.19766 	0.077653 
2.0833 	0.19936 	0.077653 
2.1000 	0.20107 	0.079271 
2.1167 	0.20277 	0.080889 
2.1333 	0.20447 	0.080889 
2.1500 	0.20617 	0.080889 
2.1667 	0.20787 	0.082506 
2.1833 	0.20958 	0.082506 
2.2000 	0.21128 	0.084124 
2.2167 	0.21279 	0.085742 
2.2333 	0.21449 	0.085742 
2.2500 	0.21601 	0.085742 
2.2667 	0.21771 	0.087360 
2.2833 	0.21941 	0.088978 
2.3000 	0.22112 	0.088978 
2.3167 	0.22282 	0.088978 
2.3333 	0.22452 	0.092213 
2.3500 	0.22622 	0.093831 
2.3833 	0.22944 	0.093831 
2.4167 	0.23265 	0.095449 
2.4500 	0.23587 	0.095449 
2.4667 	0.23757 	0.098684 
2.4833 	0.23927 	0.10030 
2.5000 	0.24098 	0.098684 
2.5167 	0.24268 	0.098684 
2.5500 	0.24589 	0.10192 
2.5833 	0.24930 	0.10354 
2.6167 	0.25270 	0.10516 
2.6500 	0.25611 	0.10516 
2.6833 	0.25951 	0.10677 
2.7167 	0.26254 	0.11001 
2.7500 	0.26594 	0.11001 
2.7833 	0.26935 	0.11324 
2.8167 	0.27275 	0.11324 
2.8500 	0.27597 	0.11486 
2.8833 	0.27918 	0.11648 
2.9167 	0.28259 	0.11810 
2.9500 	0.28599 	0.11810 
2.9833 	0.28921 	0.12133 
3.0167 	0.29242 	0.12133 
3.0500 	0.29564 	0.12295 
3.0833 	0.29923 	0.12457 
3.1167 	0.30264 	0.12619 
3.1500 	0.30604 	0.12780 
3.1833 	0.30926 	0.12780 
3.2167 	0.31247 	0.12942 
3.2500 	0.31588 	0.13104 
3.2833 	0.31947 	0.13104 
3.3167 	0.32269 	0.13266 
3.3500 	0.32590 	0.13266 
3.3833 	0.32931 	0.12780 
3.4167 	0.33271 	0.12619 
3.4500 	0.33612 	0.076035 
3.4667 	0.33782 	0.0032355 
